# Test file for "Peak Find" option in "Tools' menu.
# XRD pattern of a silicon standard
#
#plot 2theta,I
#
#2theta	I
45.02	10.88
45.05	17.201
45.08	11.82
45.11	12.74
45.14	10.961
45.17	17.28
45.2	10.1
45.23	23.632
45.26	14.665
45.29	21.898
45.32	32.729
45.35	5.761
45.38	8.493
45.41	21.125
45.44	7.658
45.47	16.69
45.5	10.422
45.53	19.454
45.56	24.887
45.59	8.719
45.62	33.051
45.65	29.483
45.68	17.816
45.71	24.148
45.74	22.381
45.77	25.112
45.8	28.743
45.83	21.577
45.86	40.51
45.89	28.841
45.92	25.273
45.95	34.305
45.98	30.737
46.01	33.47
46.04	29.903
46.07	30.834
46.1	27.266
46.13	8.399
46.16	21.03
46.19	27.364
46.22	33.695
46.25	24.728
46.28	40.06
46.31	40.993
46.34	42.824
46.37	56.356
46.4	33.888
46.43	33.922
46.46	60.953
46.49	41.186
46.52	41.218
46.55	41.249
46.58	43.082
46.61	45.815
46.64	48.547
46.67	44.978
46.7	47.711
46.73	57.642
46.76	76.576
46.79	67.608
46.82	76.64
46.85	68.572
46.88	85.704
46.91	82.136
46.94	81.269
46.97	120
47	118.233
47.03	198.365
47.06	256.898
47.09	320.829
47.12	322.661
47.15	397.394
47.18	566.627
47.21	759.259
47.24	1394.69
47.27	3321.62
47.3	6020.75
47.33	4742.78
47.36	2197.62
47.39	2093.26
47.42	2965.39
47.45	2919.51
47.48	1300.44
47.51	611.981
47.54	458.114
47.57	314.145
47.6	240.377
47.63	203.51
47.66	168.442
47.69	139.674
47.72	99.206
47.75	94.739
47.78	71.371
47.81	62.404
47.84	60.635
47.87	68.767
47.9	76.899
47.93	50.833
47.96	60.764
47.99	58.997
48.02	45.529
48.05	56.36
48.08	37.493
48.11	44.726
48.14	37.558
48.17	36.689
48.2	47.522
48.23	36.754
48.26	43.087
48.29	32.32
48.32	47.651
48.35	25.183
48.38	34.216
48.41	24.347
48.44	25.28
48.47	23.511
48.5	27.144
48.53	24.476
48.56	29.909
48.59	28.141
48.62	29.972
48.65	33.605
48.68	29.138
48.71	21.07
48.74	24.703
48.77	24.734
48.8	12.166
48.83	36.498
48.86	10.43
48.89	14.963
48.92	23.994
48.95	23.127
48.98	14.159
49.01	14.192
49.04	19.623
49.07	20.556
49.1	21.488
49.13	20.621
49.16	20.653
49.19	9.886
49.22	12.617
49.25	21.65
49.28	26.181
49.31	14.514
49.34	29.846
49.37	11.879
49.4	35.31
49.43	20.944
49.46	19.175
49.49	12.906
49.52	10.239
49.55	17.471
49.58	8.504
49.61	19.337
49.64	25.668
49.67	26.6
49.7	21.233
49.73	15.864
49.76	22.197
49.79	15.029
49.82	26.762
49.85	17.793
49.88	15.127
49.91	22.358
49.94	10.691
49.97	17.922
50	22.456
50.03	15.287
50.06	18.02
50.09	12.651
50.12	9.084
50.15	24.416
50.18	11.847
50.21	19.981
50.24	11.012
50.27	12.845
50.3	25.476
50.33	18.31
50.36	12.041
50.39	18.374
50.42	15.706
50.45	25.638
50.48	17.57
50.51	21.203
50.54	17.635
50.57	17.667
50.6	13.199
50.63	18.632
50.66	15.964
50.69	23.195
50.72	9.728
50.75	14.261
50.78	23.292
50.81	11.625
50.84	2.657
50.87	14.39
50.9	14.422
50.93	14.453
50.96	12.686
50.99	20.817
51.02	19.05
51.05	13.682
51.08	12.815
51.11	19.148
51.14	16.48
51.17	12.911
51.2	19.244
51.23	9.375
51.26	13.008
51.29	16.64
51.32	10.373
51.35	14.005
51.38	17.637
51.41	21.269
51.44	23.1
51.47	19.534
51.5	13.267
51.53	12.398
51.56	13.329
51.59	10.663
51.62	12.494
51.65	18.827
51.68	13.458
51.71	10.792
51.74	13.523
51.77	19.856
51.8	14.488
51.83	15.421
51.86	14.552
51.89	15.485
51.92	12.816
51.95	13.75
51.98	14.681
52.01	14.714
52.04	6.645
52.07	11.178
52.1	19.31
52.13	13.943
52.16	10.375
52.19	23.006
52.22	23.039
52.25	23.972
52.28	9.603
52.31	15.935
52.34	8.768
52.37	6.1
52.4	11.532
52.43	20.565
52.46	13.397
52.49	17.928
52.52	7.161
52.55	13.493
52.58	18.926
52.61	18.058
52.64	18.091
52.67	20.822
52.7	20.855
52.73	14.587
52.76	20.918
52.79	6.551
52.82	24.584
52.85	7.516
52.88	12.048
52.91	13.88
52.94	11.213
52.97	13.945
53	12.176
53.03	15.809
53.06	20.341
53.09	14.074
53.12	14.105
53.15	12.338
53.18	11.47
53.21	10.602
53.24	16.934
53.27	25.967
53.3	25.998
53.33	16.132
53.36	11.663
53.39	25.196
53.42	15.328
53.45	10.861
53.48	19.892
53.51	20.824
53.54	19.056
53.57	6.489
53.6	20.921
53.63	19.154
53.66	6.585
53.69	19.217
53.72	11.15
53.75	14.781
53.78	21.114
53.81	17.546
53.84	20.279
53.87	14.911
53.9	10.444
53.93	11.375
53.96	19.508
53.99	15.94
54.02	19.572
54.05	15.104
54.08	20.537
54.11	17.868
54.14	33.202
54.17	11.633
54.2	17.066
54.23	17.998
54.26	19.829
54.29	18.062
54.32	19.895
54.35	18.127
54.38	19.959
54.41	31.691
54.44	12.824
54.47	20.055
54.5	29.089
54.53	21.02
54.56	22.851
54.59	17.484
54.62	20.216
54.65	18.449
54.68	20.282
54.71	26.614
54.74	17.645
54.77	20.378
54.8	25.81
54.83	20.442
54.86	11.474
54.89	20.507
54.92	20.538
54.95	27.772
54.98	30.503
55.01	32.334
55.04	30.567
55.07	21.6
55.1	18.932
55.13	31.565
55.16	18.996
55.19	29.828
55.22	30.761
55.25	19.094
55.28	30.826
55.31	40.757
55.34	29.99
55.37	34.522
55.4	30.055
55.43	46.286
55.46	31.019
55.49	44.55
55.52	32.883
55.55	32.915
55.58	36.547
55.61	36.579
55.64	44.712
55.67	62.744
55.7	44.777
55.73	58.308
55.76	63.74
55.79	89.873
55.82	103.406
55.85	123.237
55.88	140.369
55.91	158.402
55.94	172.834
55.97	235.866
56	291.699
56.03	510.431
56.06	847.961
56.09	1814.6
56.12	3126.83
56.15	2490.56
56.18	1230.6
56.21	859.823
56.24	1038.96
56.27	1665.38
56.3	1444.93
56.33	734.852
56.36	332.585
56.39	227.318
56.42	166.149
56.45	150.882
56.48	123.014
56.51	78.046
56.54	69.078
56.57	60.112
56.6	46.643
56.63	53.875
56.66	43.108
56.69	47.639
56.72	50.372
56.75	46.805
56.78	45.036
56.81	33.368
56.84	28.001
56.87	32.532
56.9	27.166
56.93	33.497
56.96	33.53
56.99	34.462
57.02	29.095
57.05	15.626
57.08	33.657
57.11	19.291
57.14	22.923
57.17	27.455
57.2	39.188
57.23	23.919
57.26	24.851
57.29	20.384
57.32	18.617
57.35	20.449
57.38	21.38
57.41	30.413
57.44	24.144
57.47	9.778
57.5	17.011
57.53	14.342
57.56	25.173
57.59	18.906
57.62	19.838
57.65	19.871
57.68	20.803
57.71	15.435
57.74	16.367
57.77	16.4
57.8	20.931
57.83	15.565
57.86	7.496
57.89	14.729
57.92	17.46
57.95	14.793
57.98	17.525
58.01	20.257
58.04	23.889
58.07	24.822
58.1	14.954
58.13	13.185
58.16	13.219
58.19	19.55
58.22	15.983
58.25	30.416
58.28	17.847
58.31	12.479
58.34	16.112
58.37	8.043
58.4	15.276
58.43	10.808
58.46	17.141
58.49	19.873
58.52	21.706
58.55	28.937
58.58	19.969
58.61	20.901
58.64	15.534
58.67	11.966
58.7	16.498
58.73	18.331
58.76	11.162
58.79	21.095
58.82	13.926
58.85	22.959
58.88	17.591
58.91	8.624
58.94	17.655
58.97	8.689
59	24.92
59.03	12.353
59.06	13.284
59.09	14.218
59.12	9.749
59.15	18.78
59.18	20.614
59.21	11.647
59.24	16.178
59.27	21.611
59.3	18.042
59.33	18.974
59.36	12.707
59.39	13.638
59.42	16.371
59.45	17.303
59.48	17.336
59.51	16.468
59.54	19.201
59.57	14.732
59.6	19.265
59.63	16.596
59.66	19.329
59.69	19.361
59.72	21.194
59.75	14.025
59.78	14.059
59.81	21.29
59.84	10.523
59.87	10.555
59.9	16.887
59.93	15.119
59.96	17.852
59.99	16.983
60.02	17.917
