# Smoothing demo
#
#plot X,Y
#labX Time (min)
#labY1 Intensity
#
#X	Y
0.01022	13.4776
0.02591	8.68657
0.0416	-69.1045
0.05729	69.1045
0.07298	42.3134
0.08867	40.5224
0.10436	12.7313
0.12005	-24.0597
0.13574	20.1493
0.15143	16.3582
0.16712	53.5672
0.18281	129.776
0.1985	29.9851
0.21419	83.194
0.22988	-57.597
0.24557	173.612
0.26126	50.8209
0.27695	41.0299
0.29264	42.2388
0.30833	-12.5522
0.32402	-16.3433
0.33971	-38.1343
0.3554	79.0746
0.37109	42.2836
0.38678	-7.50746
0.40247	-82.2985
0.41816	-3.08955
0.43385	-38.8806
0.44954	3.32836
0.46523	15.5373
0.48092	-37.2537
0.49661	-20.0448
0.5123	-10.8358
0.52799	113.373
0.54368	23.5821
0.55937	39.791
0.57506	0
0.59075	22.209
0.60644	-18.5821
0.62213	40.6269
0.63782	-36.1642
0.65351	-16.9552
0.6692	0.253731
0.68489	0.462687
0.70058	-48.3284
0.71627	21.8806
0.73196	3.08955
0.74765	41.2985
0.76334	-45.4925
0.77903	11.7164
0.79472	7.92537
0.81041	-34.8657
0.8261	-11.6567
0.84179	-83.4478
0.85748	-18.2388
0.87317	-65.0299
0.88886	-75.8209
0.90455	81.3881
0.92024	49.597
0.93593	-5.19403
0.95162	-121.985
0.96731	-64.7761
0.983	-83.5672
0.99869	47.6418
1.01438	35.8507
1.03007	24.0597
1.04576	-23.7313
1.06145	-11.5224
1.07714	-3.31343
1.09283	35.8955
1.10852	-26.8955
1.12421	-16.6866
1.1399	63.5224
1.15559	14.7313
1.17128	14.9403
1.18697	-46.8507
1.20266	-14.6418
1.21835	56.5672
1.23404	-62.2239
1.24973	59.9851
1.26542	23.194
1.28111	8.40299
1.2968	4.61194
1.31249	106.821
1.32818	46.0299
1.34387	-48.7612
1.35956	62.4478
1.37525	83.6567
1.39094	-23.1343
1.40663	38.0746
1.42232	69.2836
1.43801	43.4925
1.4537	-64.2985
1.46939	16.9104
1.48508	57.1194
1.50077	-77.6716
1.51646	87.5373
1.53215	58.7463
1.54784	32.9552
1.56353	6.16418
1.57922	-36.6269
1.59491	-34.4179
1.6106	-12.209
1.62629	0
1.64198	35.6471
1.65767	80.2941
1.67336	-11.0588
1.68905	24.5882
1.70474	-23.7647
1.72043	29.8824
1.73612	-52.4706
1.75181	24.1765
1.7675	28.8235
1.78319	12.4706
1.79888	-8.88235
1.81457	35.7647
1.83026	-13.5882
1.84595	-20.9412
1.86164	48.7059
1.87733	49.3529
1.89302	48
1.90871	-15.3529
1.9244	6.29412
1.94009	3.94118
1.95578	61.5882
1.97147	-17.7647
1.98716	-69.1176
2.00285	-12.4706
2.01854	124.176
2.03423	77.8235
2.04992	-65.5294
2.06561	6.11765
2.0813	-12.2353
2.09699	-41.5882
2.11268	-1.94118
2.12837	1.70588
2.14406	11.3529
2.15975	-45
2.17544	54.6471
2.19113	-3.70588
2.20682	49.9412
2.22251	43.5882
2.2382	16.2353
2.25389	11.8824
2.26958	46.5294
2.28527	26.1765
2.30096	16.8235
2.31665	-2.52941
2.33234	4.11765
2.34803	21.7647
2.36372	-5.58824
2.37941	15.0588
2.3951	-32.2941
2.41079	99.3529
2.42648	-14
2.44217	-3.35294
2.45786	28.2941
2.47355	68.9412
2.48924	96.5882
2.50493	-2.76471
2.52062	24.8824
2.53631	24.5294
2.552	-3.82353
2.56769	24.8235
2.58338	58.4706
2.59907	25.1176
2.61476	22.7647
2.63045	65.4118
2.64614	50.0588
2.66183	52.7059
2.67752	40.3529
2.69321	3
2.7089	-20.3529
2.72459	74.2941
2.74028	40.9412
2.75597	20.5882
2.77166	27.2353
2.78735	46.8824
2.80304	61.5294
2.81873	31.1765
2.83442	65.8235
2.85011	51.4706
2.8658	-56.8824
2.88149	15.7647
2.89718	4.41176
2.91287	67.0588
2.92856	42.7059
2.94425	89.3529
2.95994	16
2.97563	-7.35294
2.99132	61.2941
3.00701	68.9412
3.0227	85.5882
3.03839	-0.764706
3.05408	36.8824
3.06977	-28.4706
3.08546	86.1765
3.10115	115.824
3.11684	80.4706
3.13253	114.118
3.14822	30.7647
3.16391	40.4118
3.1796	82.0588
3.19529	131.706
3.21098	19.3529
3.22667	4.54747e-13
3.24236	6.01923
3.25805	40.0385
3.27374	29.0577
3.28943	9.07692
3.30512	32.0962
3.32081	-13.8846
3.3365	10.1346
3.35219	15.1538
3.36788	101.173
3.38357	37.1923
3.39926	112.212
3.41495	-26.7692
3.43064	22.25
3.44633	122.269
3.46202	49.2885
3.47771	169.308
3.4934	24.3269
3.50909	71.3462
3.52478	84.3654
3.54047	-28.6154
3.55616	14.4038
3.57185	27.4231
3.58754	33.4423
3.60323	89.4615
3.61892	58.4808
3.63461	67.5
3.6503	34.5192
3.66599	-38.4615
3.68168	42.5577
3.69737	45.5769
3.71306	-13.4038
3.72875	48.6154
3.74444	-11.3654
3.76013	-6.34615
3.77582	111.673
3.79151	39.6923
3.8072	59.7115
3.82289	14.7308
3.83858	-63.25
3.85427	6.76923
3.86996	4.78846
3.88565	-27.1923
3.90134	80.8269
3.91703	-20.1538
3.93272	-12.1346
3.94841	51.8846
3.9641	10.9038
3.97979	-29.0769
3.99548	-18.0577
4.01117	11.9615
4.02686	28.9808
4.04255	0
4.05824	91.7834
4.07393	27.5667
4.08962	-2.64989
4.10531	-34.8665
4.121	-7.08315
4.13669	-39.2998
4.15238	-6.51641
4.16807	26.267
4.18376	65.0503
4.19945	14.8337
4.21514	40.6171
4.23083	36.4004
4.24652	-11.8162
4.26221	28.9672
4.2779	18.7505
4.29359	18.5339
4.30928	44.3173
4.32497	51.1007
4.34066	-36.116
4.35635	3.6674
4.37204	5.45077
4.38773	-18.7659
4.40342	-3.98249
4.41911	-39.1991
4.4348	36.5842
4.45049	22.3676
4.46618	48.151
4.48187	49.9344
4.49756	-28.2823
4.51325	22.5011
4.52894	27.2845
4.54463	53.0678
4.56032	74.8512
4.57601	-25.3654
4.5917	-32.5821
4.60739	116.201
4.62308	76.9847
4.63877	10.7681
4.65446	17.5514
4.67015	-14.6652
4.68584	-23.8818
4.70153	-43.0985
4.71722	13.6849
4.73291	-2.53173
4.7486	14.2516
4.76429	-4.96499
4.77998	18.8184
4.79567	6.60175
4.81136	-47.6149
4.82705	7.16849
4.84274	28.9519
4.85843	35.7352
4.87412	5.5186
4.88981	5.30197
4.9055	93.0853
4.92119	23.8687
4.93688	-31.3479
4.95257	115.435
4.96826	-10.7812
4.98395	50.0022
4.99964	57.7856
5.01533	9.56893
5.03102	25.3523
5.04671	30.1357
5.0624	12.919
5.07809	-3.29759
5.09378	75.4858
5.10947	87.2691
5.12516	80.0525
5.14085	6.83589
5.15654	36.6193
5.17223	1.40263
5.18792	56.186
5.20361	61.9694
5.2193	-5.24726
5.23499	-1.46389
5.25068	54.3195
5.26637	58.1028
5.28206	27.8862
5.29775	61.6696
5.31344	52.453
5.32913	77.2363
5.34482	30.0197
5.36051	-28.1969
5.3762	38.5864
5.39189	30.3698
5.40758	70.1532
5.42327	3.93654
5.43896	82.7199
5.45465	60.5033
5.47034	69.2867
5.48603	45.07
5.50172	100.853
5.51741	97.6368
5.5331	95.4201
5.54879	79.2035
5.56448	64.9869
5.58017	84.7702
5.59586	56.5536
5.61155	96.337
5.62724	139.12
5.64293	79.9037
5.65862	83.6871
5.67431	141.47
5.69	23.2538
5.70569	109.037
5.72138	115.821
5.73707	47.6039
5.75276	123.387
5.76845	101.171
5.78414	127.954
5.79983	138.737
5.81552	158.521
5.83121	83.3042
5.8469	79.0875
5.86259	155.871
5.87828	164.654
5.89397	131.438
5.90966	211.221
5.92535	116.004
5.94104	216.788
5.95673	140.571
5.97242	212.354
5.98811	151.138
6.0038	153.921
6.01949	170.705
6.03518	135.488
6.05087	147.271
6.06656	169.055
6.08225	132.838
6.09794	236.621
6.11363	234.405
6.12932	223.188
6.14501	230.972
6.1607	233.755
6.17639	268.538
6.19208	220.322
6.20777	222.105
6.22346	295.888
6.23915	178.672
6.25484	239.455
6.27053	205.239
6.28622	209.022
6.30191	269.805
6.3176	291.589
6.33329	294.372
6.34898	338.155
6.36467	275.939
6.38036	279.722
6.39605	370.505
6.41174	343.289
6.42743	379.072
6.44312	349.856
6.45881	354.639
6.4745	407.422
6.49019	393.206
6.50588	370.989
6.52157	385.772
6.53726	390.556
6.55295	439.339
6.56864	420.123
6.58433	429.906
6.60002	508.689
6.61571	443.473
6.6314	466.256
6.64709	534.039
6.66278	470.823
6.67847	584.606
6.69416	511.389
6.70985	567.173
6.72554	550.956
6.74123	508.74
6.75692	628.523
6.77261	665.306
6.7883	608.09
6.80399	625.873
6.81968	624.656
6.83537	714.44
6.85106	767.223
6.86675	680.007
6.88244	693.79
6.89813	761.573
6.91382	836.357
6.92951	751.14
6.9452	746.923
6.96089	822.707
6.97658	801.49
6.99227	803.274
7.00796	843.057
7.02365	1025.84
7.03934	951.624
7.05503	932.407
7.07072	973.19
7.08641	939.974
7.1021	1044.76
7.11779	922.54
7.13348	1050.32
7.14917	1129.11
7.16486	1072.89
7.18055	1139.67
7.19624	1183.46
7.21193	1123.24
7.22762	1128.02
7.24331	1154.81
7.259	1262.59
7.27469	1262.37
7.29038	1231.16
7.30607	1318.94
7.32176	1371.72
7.33745	1447.51
7.35314	1377.29
7.36883	1356.07
7.38452	1510.86
7.40021	1473.64
7.4159	1450.42
7.43159	1517.21
7.44728	1636.99
7.46297	1657.77
7.47866	1603.56
7.49435	1631.34
7.51004	1670.12
7.52573	1703.91
7.54142	1695.69
7.55711	1852.47
7.5728	1859.26
7.58849	1915.04
7.60418	1799.82
7.61987	1864.61
7.63556	1866.39
7.65125	1986.18
7.66694	1895.96
7.68263	2002.74
7.69832	2025.53
7.71401	2047.31
7.7297	2055.09
7.74539	2093.88
7.76108	2037.66
7.77677	2186.44
7.79246	2145.23
7.80815	2163.01
7.82384	2181.79
7.83953	2129.58
7.85522	2241.36
7.87091	2197.14
7.8866	2268.93
7.90229	2319.71
7.91798	2362.49
7.93367	2344.28
7.94936	2310.06
7.96505	2400.84
7.98074	2389.63
7.99643	2348.41
8.01212	2277.19
8.02781	2473.98
8.0435	2292.76
8.05919	2325.54
8.07488	2437.33
8.09057	2420.11
8.10626	2381.89
8.12195	2354.68
8.13764	2501.46
8.15333	2353.24
8.16902	2382.03
8.18471	2410.81
8.2004	2266.59
8.21609	2323.38
8.23178	2364.16
8.24747	2227.94
8.26316	2281.73
8.27885	2344.51
8.29454	2271.29
8.31023	2254.08
8.32592	2277.86
8.34161	2316.64
8.3573	2231.43
8.37299	2152.21
8.38868	2270.99
8.40437	2249.78
8.42006	2176.56
8.43575	2109.34
8.45144	2032.13
8.46713	2175.91
8.48282	2032.69
8.49851	1989.48
8.5142	1953.26
8.52989	1953.04
8.54558	1945.83
8.56127	1871.61
8.57696	1786.39
8.59265	1811.18
8.60834	1765.96
8.62403	1796.74
8.63972	1729.53
8.65541	1659.31
8.6711	1666.09
8.68679	1735.88
8.70248	1559.66
8.71817	1571.44
8.73386	1556.23
8.74955	1636.01
8.76524	1507.79
8.78093	1520.58
8.79662	1450.36
8.81231	1451.14
8.828	1501.93
8.84369	1356.71
8.85938	1386.49
8.87507	1366.28
8.89076	1269.06
8.90645	1274.84
8.92214	1197.63
8.93783	1192.41
8.95352	1294.19
8.96921	1214.98
8.9849	1067.76
9.00059	1128.54
9.01628	1094.33
9.03197	1077.11
9.04766	970.895
9.06335	950.678
9.07904	875.462
9.09473	959.245
9.11042	865.028
9.12611	940.812
9.1418	842.595
9.15749	919.379
9.17318	872.162
9.18887	828.945
9.20456	759.729
9.22025	693.512
9.23594	778.295
9.25163	706.079
9.26732	718.862
9.28301	682.646
9.2987	756.429
9.31439	648.212
9.33008	619.996
9.34577	681.779
9.36146	662.562
9.37715	607.346
9.39284	599.129
9.40853	538.912
9.42422	511.696
9.43991	513.479
9.4556	482.263
9.47129	538.046
9.48698	542.829
9.50267	406.613
9.51836	517.396
9.53405	407.179
9.54974	458.963
9.56543	433.746
9.58112	486.53
9.59681	421.313
9.6125	418.096
9.62819	357.88
9.64388	368.663
9.65957	269.446
9.67526	382.23
9.69095	335.013
9.70664	360.796
9.72233	295.58
9.73802	234.363
9.75371	247.147
9.7694	242.93
9.78509	303.713
9.80078	327.497
9.81647	388.28
9.83216	293.063
9.84785	292.847
9.86354	266.63
9.87923	240.414
9.89492	165.197
9.91061	267.98
9.9263	166.764
9.94199	170.547
9.95768	227.33
9.97337	243.114
9.98906	254.897
10.0048	218.681
10.0204	229.464
10.0361	198.247
10.0518	111.031
10.0675	131.814
10.0832	45.5974
10.0989	151.381
10.1146	104.164
10.1303	149.947
10.146	140.731
10.1617	104.514
10.1773	101.298
10.193	49.081
10.2087	80.8643
10.2244	118.648
10.2401	80.4311
10.2558	59.2144
10.2715	99.9978
10.2872	91.7812
10.3029	99.5646
10.3185	81.3479
10.3342	79.1313
10.3499	8.91466
10.3656	49.698
10.3813	27.4814
10.397	94.2648
10.4127	97.0481
10.4284	16.8315
10.4441	30.6149
10.4598	25.3982
10.4754	79.1816
10.4911	36.965
10.5068	28.7484
10.5225	45.5317
10.5382	28.3151
10.5539	52.0985
10.5696	52.8818
10.5853	5.66521
10.601	59.4486
10.6167	1.23195
10.6323	-42.9847
10.648	3.79869
10.6637	2.58206
10.6794	34.3654
10.6951	0.148796
10.7108	8.93217
10.7265	14.7155
10.7422	-33.5011
10.7579	-36.7177
10.7736	0.0656455
10.7892	-13.151
10.8049	13.6324
10.8206	-22.5842
10.8363	-26.8009
10.852	33.9825
10.8677	-35.2341
10.8834	-58.4508
10.8991	9.3326
10.9148	-5.88403
10.9305	-49.1007
10.9461	-62.3173
10.9618	-85.5339
10.9775	-39.7505
10.9932	-27.9672
11.0089	-45.1838
11.0246	-30.4004
11.0403	-55.6171
11.056	6.1663
11.0717	-7.05033
11.0874	-2.26696
11.103	-61.4836
11.1187	-65.7002
11.1344	-59.9168
11.1501	-35.1335
11.1658	-27.3501
11.1815	-64.5667
11.1972	2.21663
11.2129	0
11.2286	-12.6341
11.2443	-6.26829
11.2599	-62.9024
11.2756	-36.5366
11.2913	8.82927
11.307	-20.8049
11.3227	-2.43902
11.3384	-36.0732
11.3541	-45.7073
11.3698	4.65854
11.3855	-0.97561
11.4012	-27.6098
11.4169	-3.2439
11.4325	-107.878
11.4482	-19.5122
11.4639	-21.1463
11.4796	-84.7805
11.4953	-66.4146
11.511	-49.0488
11.5267	-74.6829
11.5424	-26.3171
11.5581	-43.9512
11.5738	-59.5854
11.5894	-55.2195
11.6051	32.1463
11.6208	-45.4878
11.6365	-35.122
11.6522	-71.7561
11.6679	-2.39024
11.6836	-102.024
11.6993	-10.6585
11.715	-21.2927
11.7307	-4.92683
11.7463	-52.561
11.762	-16.1951
11.7777	-24.8293
11.7934	-73.4634
11.8091	-35.0976
11.8248	-94.7317
11.8405	-20.3659
11.8562	0
11.8719	-21.6567
11.8876	-29.3134
11.9032	-40.9701
11.9189	-79.6269
11.9346	-12.2836
11.9503	4.0597
11.966	-42.597
11.9817	-15.2537
11.9974	-42.9104
12.0131	-29.5672
12.0288	8.77612
12.0444	-39.8806
12.0601	31.4627
12.0758	10.806
12.0915	-10.8507
12.1072	-113.507
12.1229	-3.16418
12.1386	-30.8209
12.1543	-52.4776
12.17	-93.1343
12.1857	2.20896
12.2013	-52.4478
12.217	-46.1045
12.2327	-74.7612
12.2484	0.58209
12.2641	-56.0746
12.2798	-31.7313
12.2955	-35.3881
12.3112	-77.0448
12.3269	-85.7015
12.3426	-36.3582
12.3582	-27.0149
12.3739	-43.6716
12.3896	-72.3284
12.4053	-43.9851
12.421	-85.6418
12.4367	-46.2985
12.4524	-42.9552
12.4681	2.38806
12.4838	-55.2687
12.4995	-58.9254
12.5151	-90.5821
12.5308	-122.239
12.5465	-37.8955
12.5622	-23.5522
12.5779	-47.209
12.5936	32.1343
12.6093	-67.5224
12.625	0.820896
12.6407	-18.8358
12.6564	-16.4925
12.672	-51.1493
12.6877	-74.806
12.7034	-44.4627
12.7191	-86.1194
12.7348	-40.7761
12.7505	-34.4328
12.7662	-51.0896
12.7819	-82.7463
12.7976	-3.40299
12.8133	-84.0597
12.8289	-18.7164
12.8446	-31.3731
12.8603	-55.0299
12.876	0.313433
12.8917	-79.3433
12.9074	28
12.9231	39.3433
12.9388	-54.3134
12.9545	7.02985
12.9702	-24.6269
12.9858	-103.284
13.0015	-87.9403
13.0172	-20.597
13.0329	-5.25373
13.0486	-47.9104
13.0643	-19.5672
13.08	-40.2239
13.0957	-29.8806
13.1114	-13.5373
13.1271	-12.194
13.1427	-46.8507
13.1584	-37.5075
13.1741	-27.1642
13.1898	-23.8209
13.2055	-34.4776
13.2212	-41.1343
13.2369	-29.791
13.2526	10.5522
13.2683	14.8955
13.284	40.2388
13.2996	-18.4179
13.3153	-58.0746
13.331	-40.7313
13.3467	-41.3881
13.3624	7.95522
13.3781	-11.7015
13.3938	-24.3582
13.4095	4.98507
13.4252	-34.6716
13.4409	-17.3284
13.4566	-52.9851
13.4722	-14.6418
13.4879	-5.29851
13.5036	24.0448
13.5193	20.3881
13.535	27.7313
13.5507	-51.9254
13.5664	-41.5821
13.5821	37.7612
13.5978	-34.8955
13.6135	-41.5522
13.6291	-11.209
13.6448	-9.86567
13.6605	-3.52239
13.6762	-9.1791
13.6919	22.1642
13.7076	-16.4925
13.7233	1.85075
13.739	-18.806
13.7547	1.53731
13.7704	44.8806
13.786	4.22388
13.8017	5.56716
13.8174	7.91045
13.8331	-21.7463
13.8488	5.59701
13.8645	46.9403
13.8802	32.2836
13.8959	-41.3731
13.9116	-19.0299
13.9273	22.3134
13.9429	-3.34328
13.9586	0
13.9743	-7.94805
13.99	58.1039
14.0057	43.1558
14.0214	-57.7922
14.0371	36.2597
14.0528	-30.6883
14.0685	-24.6364
14.0842	10.4156
14.0998	50.4675
14.1155	55.5195
14.1312	8.57143
14.1469	-21.3766
14.1626	28.6753
14.1783	53.7273
14.194	-24.2208
14.2097	-13.1688
14.2254	-3.11688
14.2411	-27.0649
14.2567	-14.013
14.2724	-16.961
14.2881	-20.9091
14.3038	14.1429
14.3195	17.1948
14.3352	-26.7532
14.3509	-63.7013
14.3666	21.3506
14.3823	-23.5974
14.398	-4.54545
14.4136	2.50649
14.4293	28.5584
14.445	-6.38961
14.4607	56.6623
14.4764	4.71429
14.4921	-14.2338
14.5078	39.8182
14.5235	12.8701
14.5392	-26.0779
14.5549	-7.02597
14.5705	-7.97403
14.5862	38.0779
14.6019	42.1299
14.6176	-5.81818
14.6333	-5.76623
14.649	40.2857
14.6647	46.3377
14.6804	25.3896
14.6961	8.44156
14.7118	-11.5065
14.7274	-40.4545
14.7431	-9.4026
14.7588	-16.3506
14.7745	-32.2987
14.7902	-8.24675
14.8059	16.8052
14.8216	15.8571
14.8373	-32.0909
14.853	18.961
14.8687	12.013
14.8843	-9.93506
14.9	16.1169
14.9157	1.16883
14.9314	44.2208
14.9471	6.27273
14.9628	-27.6753
14.9785	5.37662
14.9942	-4.57143
15.0099	-22.5195
15.0256	-30.4675
15.0412	8.58442
15.0569	43.6364
15.0726	-31.3117
15.0883	-40.2597
15.104	-24.2078
15.1197	106.844
15.1354	9.8961
15.1511	-23.0519
15.1668	0
15.1825	7.24638
15.1981	21.4928
15.2138	-14.2609
15.2295	1.98551
15.2452	29.2319
15.2609	41.4783
15.2766	-12.2754
15.2923	41.971
15.308	14.2174
15.3237	32.4638
15.3394	-15.2899
15.355	-16.0435
15.3707	20.2029
15.3864	-11.5507
15.4021	34.6957
15.4178	2.94203
15.4335	91.1884
15.4492	20.4348
15.4649	58.6812
15.4806	52.9275
15.4963	28.1739
15.5119	6.42029
15.5276	29.6667
15.5433	-11.087
15.559	66.1594
15.5747	-45.5942
15.5904	34.6522
15.6061	-0.101449
15.6218	22.1449
15.6375	52.3913
15.6531	50.6377
15.6688	-3.11594
15.6845	35.1304
15.7002	34.3768
15.7159	28.6232
15.7316	57.8696
15.7473	77.1159
15.763	80.3623
15.7787	35.6087
15.7944	32.8551
15.81	51.1014
15.8257	61.3478
15.8414	53.5942
15.8571	-0.15942
15.8728	80.087
15.8885	20.3333
15.9042	83.5797
15.9199	56.8261
15.9356	102.072
15.9513	107.319
15.9669	72.5652
15.9826	85.8116
15.9983	80.058
16.014	124.304
16.0297	105.551
16.0454	49.7971
16.0611	86.0435
16.0768	115.29
16.0925	17.5362
16.1082	69.7826
16.1238	85.029
16.1395	99.2754
16.1552	140.522
16.1709	168.768
16.1866	190.014
16.2023	129.261
16.218	82.5072
16.2337	143.754
16.2494	128
16.2651	186.246
16.2807	163.493
16.2964	176.739
16.3121	163.986
16.3278	151.232
16.3435	169.478
16.3592	205.725
16.3749	170.971
16.3906	136.217
16.4063	180.464
16.422	131.71
16.4376	243.957
16.4533	279.203
16.469	239.449
16.4847	224.696
16.5004	228.942
16.5161	255.188
16.5318	269.435
16.5475	282.681
16.5632	244.928
16.5789	191.174
16.5945	204.42
16.6102	296.667
16.6259	290.913
16.6416	318.159
16.6573	315.406
16.673	330.652
16.6887	276.899
16.7044	379.145
16.7201	338.391
16.7358	381.638
16.7514	351.884
16.7671	325.13
16.7828	366.377
16.7985	342.623
16.8142	343.87
16.8299	450.116
16.8456	416.362
16.8613	461.609
16.877	420.855
16.8927	431.101
16.9083	423.348
16.924	507.594
16.9397	479.841
16.9554	502.087
16.9711	447.333
16.9868	481.58
17.0025	519.826
17.0182	518.072
17.0339	573.319
17.0496	549.565
17.0652	554.812
17.0809	588.058
17.0966	589.304
17.1123	625.551
17.128	656.797
17.1437	638.043
17.1594	692.29
17.1751	726.536
17.1908	727.783
17.2065	826.029
17.2221	688.275
17.2378	859.522
17.2535	752.768
17.2692	847.014
17.2849	882.261
17.3006	874.507
17.3163	921.754
17.332	835
17.3477	887.246
17.3634	858.493
17.379	1006.74
17.3947	1071.99
17.4104	966.232
17.4261	1070.48
17.4418	991.725
17.4575	1128.97
17.4732	1105.22
17.4889	1108.46
17.5046	1122.71
17.5203	1177.96
17.5359	1202.2
17.5516	1143.45
17.5673	1294.7
17.583	1307.94
17.5987	1366.19
17.6144	1352.43
17.6301	1339.68
17.6458	1425.93
17.6615	1417.17
17.6772	1483.42
17.6928	1409.67
17.7085	1412.91
17.7242	1594.16
17.7399	1491.41
17.7556	1568.65
17.7713	1578.9
17.787	1527.14
17.8027	1582.39
17.8184	1723.64
17.8341	1675.88
17.8498	1763.13
17.8654	1734.38
17.8811	1727.62
17.8968	1802.87
17.9125	1821.12
17.9282	1902.36
17.9439	1818.61
17.9596	1844.86
17.9753	1965.1
17.991	1964.35
18.0067	1971.59
18.0223	1964.84
18.038	2036.09
18.0537	2008.33
18.0694	2012.58
18.0851	1973.83
18.1008	2081.07
18.1165	2019.32
18.1322	2023.57
18.1479	2051.81
18.1636	2097.06
18.1792	2024.3
18.1949	2121.55
18.2106	2137.8
18.2263	2238.04
18.242	2156.29
18.2577	2114.54
18.2734	2204.78
18.2891	2362.03
18.3048	2169.28
18.3205	2153.52
18.3361	2093.77
18.3518	2208.01
18.3675	2134.26
18.3832	2173.51
18.3989	2187.75
18.4146	2140
18.4303	2099.25
18.446	2182.49
18.4617	2053.74
18.4774	2088.99
18.493	2097.23
18.5087	2056.48
18.5244	2088.72
18.5401	2062.97
18.5558	1992.22
18.5715	2000.46
18.5872	1999.71
18.6029	1905.96
18.6186	2063.2
18.6343	1884.45
18.6499	1791.7
18.6656	1906.94
18.6813	1836.19
18.697	1831.43
18.7127	1808.68
18.7284	1651.93
18.7441	1753.17
18.7598	1861.42
18.7755	1736.67
18.7912	1662.91
18.8068	1678.16
18.8225	1578.41
18.8382	1636.65
18.8539	1627.9
18.8696	1566.14
18.8853	1546.39
18.901	1454.64
18.9167	1578.88
18.9324	1452.13
18.9481	1477.38
18.9637	1423.62
18.9794	1367.87
18.9951	1401.12
19.0108	1256.36
19.0265	1283.61
19.0422	1281.86
19.0579	1267.1
19.0736	1223.35
19.0893	1223.59
19.105	1212.84
19.1206	1196.09
19.1363	1146.33
19.152	1163.58
19.1677	1027.83
19.1834	1110.07
19.1991	1024.32
19.2148	976.565
19.2305	963.812
19.2462	987.058
19.2619	966.304
19.2775	930.551
19.2932	995.797
19.3089	992.043
19.3246	961.29
19.3403	861.536
19.356	891.783
19.3717	932.029
19.3874	824.275
19.4031	823.522
19.4188	748.768
19.4344	785.014
19.4501	748.261
19.4658	685.507
19.4815	715.754
19.4972	710
19.5129	746.246
19.5286	653.493
19.5443	677.739
19.56	686.986
19.5757	717.232
19.5913	644.478
19.607	611.725
19.6227	587.971
19.6384	609.217
19.6541	564.464
19.6698	542.71
19.6855	577.957
19.7012	530.203
19.7169	521.449
19.7326	526.696
19.7482	540.942
19.7639	477.188
19.7796	500.435
19.7953	420.681
19.811	540.928
19.8267	388.174
19.8424	467.42
19.8581	463.667
19.8738	438.913
19.8894	443.159
19.9051	482.406
19.9208	465.652
19.9365	438.899
19.9522	417.145
19.9679	374.391
19.9836	408.638
19.9993	386.884
20.015	338.13
20.0307	386.377
20.0463	332.623
20.062	360.87
20.0777	383.116
20.0934	375.362
20.1091	321.609
20.1248	323.855
20.1405	295.101
20.1562	301.348
20.1719	314.594
20.1876	284.841
20.2032	318.087
20.2189	293.333
20.2346	252.58
20.2503	293.826
20.266	298.072
20.2817	340.319
20.2974	260.565
20.3131	253.812
20.3288	259.058
20.3445	237.304
20.3601	242.551
20.3758	214.797
20.3915	251.043
20.4072	254.29
20.4229	226.536
20.4386	262.783
20.4543	183.029
20.47	228.275
20.4857	169.522
20.5014	221.768
20.517	266.014
20.5327	223.261
20.5484	211.507
20.5641	143.754
20.5798	229
20.5955	137.246
20.6112	138.493
20.6269	156.739
20.6426	177.986
20.6583	152.232
20.6739	166.478
20.6896	164.725
20.7053	174.971
20.721	183.217
20.7367	145.464
20.7524	93.7101
20.7681	97.9565
20.7838	89.2029
20.7995	101.449
20.8152	111.696
20.8308	93.942
20.8465	97.1884
20.8622	70.4348
20.8779	109.681
20.8936	80.9275
20.9093	137.174
20.925	125.42
20.9407	101.667
20.9564	81.913
20.9721	91.1594
20.9877	148.406
21.0034	105.652
21.0191	107.899
21.0348	92.1449
21.0505	95.3913
21.0662	66.6377
21.0819	70.8841
21.0976	92.1304
21.1133	25.3768
21.129	90.6232
21.1446	103.87
21.1603	90.1159
21.176	82.3623
21.1917	97.6087
21.2074	67.8551
21.2231	138.101
21.2388	58.3478
21.2545	112.594
21.2702	91.8406
21.2859	51.087
21.3015	12.3333
21.3172	42.5797
21.3329	38.8261
21.3486	70.0725
21.3643	29.3188
21.38	47.5652
21.3957	48.8116
21.4114	37.058
21.4271	45.3043
21.4428	73.5507
21.4584	22.7971
21.4741	53.0435
21.4898	36.2899
21.5055	49.5362
21.5212	38.7826
21.5369	43.029
21.5526	19.2754
21.5683	5.52174
21.584	41.7681
21.5997	36.0145
21.6153	55.2609
21.631	36.5072
21.6467	26.7536
21.6624	11
21.6781	4.24638
21.6938	23.4928
21.7095	27.7391
21.7252	31.9855
21.7409	2.23188
21.7566	6.47826
21.7722	38.7246
21.7879	61.971
21.8036	74.2174
21.8193	43.4638
21.835	14.7101
21.8507	36.9565
21.8664	52.2029
21.8821	4.44928
21.8978	11.6957
21.9135	2.94203
21.9291	38.1884
21.9448	50.4348
21.9605	39.6812
21.9762	56.9275
21.9919	56.1739
